PE UV       SUBTECH     SPECTRUM    ASCII       PEDS        4.00        
   -1
DO-CI.Sample.Raw.asc
25/08/27
16:11:02.00
25/08/27
16:11:02.00
Analyst
amarillo
200.000000
1
Lambda 35
505S09021304
PerkinElmer UV WinLab 6.0.2.0723 / Lambda35 1.27

480
2
1
0
0
Both on
1
1
1
None
0
0
0
0
 
 
0
0
0
0
0
 
 
 
0
 
0
326
0
 
0
 
 
 
0
0
0
 
0
 
 
 
0
 
 
0
0
0
0
0
 
 
 
 
0
0
#HDR
-1
-1
#GR
nm
A
1.0
0.0
800.000000
-1.000000
601
8
1.772702
-1.280635
#DATA
800.000000	-0.120547
799.000000	-0.120494
798.000000	-0.120386
797.000000	-0.120464
796.000000	-0.120222
795.000000	-0.120835
794.000000	-0.122814
793.000000	-0.122775
792.000000	-0.122668
791.000000	-0.122644
790.000000	-0.122388
789.000000	-0.122116
788.000000	-0.121672
787.000000	-0.121864
786.000000	-0.121886
785.000000	-0.121883
784.000000	-0.122082
783.000000	-0.122346
782.000000	-0.122631
781.000000	-0.123011
780.000000	-0.123666
779.000000	-0.124126
778.000000	-0.124292
777.000000	-0.124074
776.000000	-0.123524
775.000000	-0.122940
774.000000	-0.122612
773.000000	-0.122010
772.000000	-0.121345
771.000000	-0.121338
770.000000	-0.121352
769.000000	-0.121414
768.000000	-0.121293
767.000000	-0.121495
766.000000	-0.121461
765.000000	-0.121509
764.000000	-0.121442
763.000000	-0.121165
762.000000	-0.121102
761.000000	-0.121111
760.000000	-0.121138
759.000000	-0.121085
758.000000	-0.120892
757.000000	-0.120997
756.000000	-0.121034
755.000000	-0.120967
754.000000	-0.120766
753.000000	-0.120632
752.000000	-0.120565
751.000000	-0.120476
750.000000	-0.120346
749.000000	-0.120356
748.000000	-0.120217
747.000000	-0.120227
746.000000	-0.120029
745.000000	-0.120073
744.000000	-0.119883
743.000000	-0.119870
742.000000	-0.119736
741.000000	-0.119655
740.000000	-0.119590
739.000000	-0.119420
738.000000	-0.119539
737.000000	-0.119389
736.000000	-0.119317
735.000000	-0.119184
734.000000	-0.119088
733.000000	-0.118964
732.000000	-0.119026
731.000000	-0.118955
730.000000	-0.118829
729.000000	-0.118759
728.000000	-0.118603
727.000000	-0.118585
726.000000	-0.118438
725.000000	-0.118369
724.000000	-0.118289
723.000000	-0.118326
722.000000	-0.118217
721.000000	-0.118153
720.000000	-0.118119
719.000000	-0.117961
718.000000	-0.117830
717.000000	-0.117865
716.000000	-0.117714
715.000000	-0.117743
714.000000	-0.117594
713.000000	-0.117591
712.000000	-0.117595
711.000000	-0.117510
710.000000	-0.117392
709.000000	-0.117352
708.000000	-0.117217
707.000000	-0.117077
706.000000	-0.117126
705.000000	-0.116898
704.000000	-0.116717
703.000000	-0.116618
702.000000	-0.116496
701.000000	-0.116380
700.000000	-0.116386
699.000000	-0.116340
698.000000	-0.116277
697.000000	-0.116180
696.000000	-0.116123
695.000000	-0.116130
694.000000	-0.116009
693.000000	-0.116246
692.000000	-0.115739
691.000000	-0.115774
690.000000	-0.115626
689.000000	-0.115583
688.000000	-0.115523
687.000000	-0.115419
686.000000	-0.115285
685.000000	-0.115075
684.000000	-0.114539
683.000000	-0.113364
682.000000	-0.113326
681.000000	-0.113246
680.000000	-0.113159
679.000000	-0.113100
678.000000	-0.113093
677.000000	-0.113063
676.000000	-0.112972
675.000000	-0.112820
674.000000	-0.112954
673.000000	-0.112872
672.000000	-0.112822
671.000000	-0.112619
670.000000	-0.112641
669.000000	-0.112505
668.000000	-0.112405
667.000000	-0.112426
666.000000	-0.112412
665.000000	-0.112283
664.000000	-0.112192
663.000000	-0.112128
662.000000	-0.112131
661.000000	-0.112059
660.000000	-0.112244
659.000000	-0.112113
658.000000	-0.112239
657.000000	-0.112150
656.000000	-0.112177
655.000000	-0.112126
654.000000	-0.112091
653.000000	-0.112009
652.000000	-0.112254
651.000000	-0.112413
650.000000	-0.111736
649.000000	-0.112873
648.000000	-0.112690
647.000000	-0.112243
646.000000	-0.112209
645.000000	-0.112093
644.000000	-0.112295
643.000000	-0.112453
642.000000	-0.112354
641.000000	-0.112555
640.000000	-0.112270
639.000000	-0.112548
638.000000	-0.112713
637.000000	-0.112700
636.000000	-0.112547
635.000000	-0.112582
634.000000	-0.112463
633.000000	-0.112457
632.000000	-0.112340
631.000000	-0.112474
630.000000	-0.112477
629.000000	-0.112481
628.000000	-0.112390
627.000000	-0.112513
626.000000	-0.112362
625.000000	-0.112483
624.000000	-0.112380
623.000000	-0.112551
622.000000	-0.112430
621.000000	-0.112526
620.000000	-0.112440
619.000000	-0.112587
618.000000	-0.112640
617.000000	-0.112785
616.000000	-0.112713
615.000000	-0.112570
614.000000	-0.112815
613.000000	-0.112622
612.000000	-0.112752
611.000000	-0.112702
610.000000	-0.112650
609.000000	-0.112777
608.000000	-0.112628
607.000000	-0.112813
606.000000	-0.112879
605.000000	-0.112757
604.000000	-0.112742
603.000000	-0.112818
602.000000	-0.112768
601.000000	-0.112819
600.000000	-0.112705
599.000000	-0.112673
598.000000	-0.112542
597.000000	-0.112355
596.000000	-0.112217
595.000000	-0.112071
594.000000	-0.111618
593.000000	-0.111471
592.000000	-0.111199
591.000000	-0.111080
590.000000	-0.110569
589.000000	-0.110185
588.000000	-0.109743
587.000000	-0.109425
586.000000	-0.109223
585.000000	-0.108743
584.000000	-0.108330
583.000000	-0.108127
582.000000	-0.107784
581.000000	-0.107510
580.000000	-0.107279
579.000000	-0.107083
578.000000	-0.106853
577.000000	-0.106613
576.000000	-0.106427
575.000000	-0.105945
574.000000	-0.106166
573.000000	-0.106008
572.000000	-0.105707
571.000000	-0.105704
570.000000	-0.105579
569.000000	-0.105439
568.000000	-0.105548
567.000000	-0.105240
566.000000	-0.105051
565.000000	-0.105101
564.000000	-0.105003
563.000000	-0.104830
562.000000	-0.104906
561.000000	-0.104636
560.000000	-0.104661
559.000000	-0.105424
558.000000	-0.106539
557.000000	-0.106475
556.000000	-0.106485
555.000000	-0.106417
554.000000	-0.106446
553.000000	-0.106449
552.000000	-0.106214
551.000000	-0.106357
550.000000	-0.106228
549.000000	-0.106338
548.000000	-0.106226
547.000000	-0.106142
546.000000	-0.106264
545.000000	-0.106106
544.000000	-0.106242
543.000000	-0.106115
542.000000	-0.106024
541.000000	-0.106054
540.000000	-0.105747
539.000000	-0.105701
538.000000	-0.105520
537.000000	-0.105374
536.000000	-0.105204
535.000000	-0.105168
534.000000	-0.104974
533.000000	-0.104750
532.000000	-0.104596
531.000000	-0.104201
530.000000	-0.103894
529.000000	-0.103642
528.000000	-0.103253
527.000000	-0.102876
526.000000	-0.102358
525.000000	-0.101699
524.000000	-0.100911
523.000000	-0.100131
522.000000	-0.099165
521.000000	-0.098090
520.000000	-0.096846
519.000000	-0.095152
518.000000	-0.093235
517.000000	-0.091263
516.000000	-0.088060
515.000000	-0.084439
514.000000	-0.079790
513.000000	-0.073977
512.000000	-0.067008
511.000000	-0.058066
510.000000	-0.046592
509.000000	-0.032459
508.000000	-0.014662
507.000000	0.007341
506.000000	0.034885
505.000000	0.068956
504.000000	0.111191
503.000000	0.162481
502.000000	0.223816
501.000000	0.296215
500.000000	0.380350
499.000000	0.476568
498.000000	0.585675
497.000000	0.707515
496.000000	0.838050
495.000000	0.974703
494.000000	1.113533
493.000000	1.247926
492.000000	1.372142
491.000000	1.483300
490.000000	1.575635
489.000000	1.652208
488.000000	1.704684
487.000000	1.741837
486.000000	1.765036
485.000000	1.772702
484.000000	1.764039
483.000000	1.742585
482.000000	1.708774
481.000000	1.665166
480.000000	1.613029
479.000000	1.555015
478.000000	1.494686
477.000000	1.432809
476.000000	1.370310
475.000000	1.314000
474.000000	1.262482
473.000000	1.217910
472.000000	1.180108
471.000000	1.149178
470.000000	1.125628
469.000000	1.109294
468.000000	1.096982
467.000000	1.088554
466.000000	1.083067
465.000000	1.078829
464.000000	1.073374
463.000000	1.067481
462.000000	1.058534
461.000000	1.046983
460.000000	1.031498
459.000000	1.011358
458.000000	0.986881
457.000000	0.957342
456.000000	0.924842
455.000000	0.887362
454.000000	0.848340
453.000000	0.806955
452.000000	0.764764
451.000000	0.722259
450.000000	0.679636
449.000000	0.637999
448.000000	0.597959
447.000000	0.558998
446.000000	0.523131
445.000000	0.489196
444.000000	0.458169
443.000000	0.429166
442.000000	0.403117
441.000000	0.378538
440.000000	0.355621
439.000000	0.334148
438.000000	0.313830
437.000000	0.294201
436.000000	0.275703
435.000000	0.257747
434.000000	0.240280
433.000000	0.223152
432.000000	0.206149
431.000000	0.189563
430.000000	0.173628
429.000000	0.157562
428.000000	0.142414
427.000000	0.127281
426.000000	0.112916
425.000000	0.099381
424.000000	0.086626
423.000000	0.074127
422.000000	0.063229
421.000000	0.052646
420.000000	0.042475
419.000000	0.032871
418.000000	0.024048
417.000000	0.015985
416.000000	0.008159
415.000000	0.001258
414.000000	-0.005317
413.000000	-0.011548
412.000000	-0.017037
411.000000	-0.022369
410.000000	-0.027351
409.000000	-0.031879
408.000000	-0.036267
407.000000	-0.040245
406.000000	-0.044157
405.000000	-0.047608
404.000000	-0.050854
403.000000	-0.053864
402.000000	-0.056908
401.000000	-0.059362
400.000000	-0.061772
399.000000	-0.064134
398.000000	-0.066268
397.000000	-0.068167
396.000000	-0.070146
395.000000	-0.071408
394.000000	-0.073066
393.000000	-0.074542
392.000000	-0.075730
391.000000	-0.076967
390.000000	-0.078071
389.000000	-0.079138
388.000000	-0.079903
387.000000	-0.080664
386.000000	-0.081573
385.000000	-0.082051
384.000000	-0.082535
383.000000	-0.083585
382.000000	-0.083581
381.000000	-0.083139
380.000000	-0.085140
379.000000	-0.085499
378.000000	-0.085527
377.000000	-0.086069
376.000000	-0.085999
375.000000	-0.086959
374.000000	-0.087522
373.000000	-0.088346
372.000000	-0.089530
371.000000	-0.091923
370.000000	-0.094812
369.000000	-0.097118
368.000000	-0.100558
367.000000	-0.103745
366.000000	-0.106962
365.000000	-0.109580
364.000000	-0.112311
363.000000	-0.113837
362.000000	-0.115573
361.000000	-0.117376
360.000000	-0.118495
359.000000	-0.119630
358.000000	-0.120460
357.000000	-0.121096
356.000000	-0.121619
355.000000	-0.121666
354.000000	-0.122563
353.000000	-0.122724
352.000000	-0.122544
351.000000	-0.122793
350.000000	-0.123282
349.000000	-0.122776
348.000000	-0.122564
347.000000	-0.122412
346.000000	-0.122615
345.000000	-0.122827
344.000000	-0.122453
343.000000	-0.121694
342.000000	-0.121704
341.000000	-0.121995
340.000000	-0.122253
339.000000	-0.121752
338.000000	-0.121549
337.000000	-0.120999
336.000000	-0.120482
335.000000	-0.120412
334.000000	-0.119794
333.000000	-0.119308
332.000000	-0.119546
331.000000	-0.118827
330.000000	-0.118720
329.000000	-0.120286
328.000000	-0.122446
327.000000	-0.130611
326.000000	-0.129952
325.000000	-0.129652
324.000000	-0.128950
323.000000	-0.128306
322.000000	-0.127533
321.000000	-0.127122
320.000000	-0.126287
319.000000	-0.125467
318.000000	-0.124126
317.000000	-0.123298
316.000000	-0.121645
315.000000	-0.119904
314.000000	-0.117786
313.000000	-0.115597
312.000000	-0.113045
311.000000	-0.109990
310.000000	-0.106155
309.000000	-0.102308
308.000000	-0.097305
307.000000	-0.091554
306.000000	-0.084714
305.000000	-0.077042
304.000000	-0.067753
303.000000	-0.058978
302.000000	-0.050070
301.000000	-0.042449
300.000000	-0.036135
299.000000	-0.031411
298.000000	-0.027204
297.000000	-0.024517
296.000000	-0.022463
295.000000	-0.024076
294.000000	-0.024618
293.000000	-0.027091
292.000000	-0.020938
291.000000	-0.009872
290.000000	-0.006906
289.000000	0.000067
288.000000	-0.002029
287.000000	-0.002199
286.000000	-0.015566
285.000000	-0.036296
284.000000	-0.050783
283.000000	-0.076137
282.000000	-0.133063
281.000000	-0.120996
280.000000	-0.074153
279.000000	-0.142458
278.000000	-0.064636
277.000000	-0.162014
276.000000	-0.123120
275.000000	-0.182695
274.000000	-0.111320
273.000000	-0.148843
272.000000	-0.163106
271.000000	-0.101110
270.000000	-0.098023
269.000000	-0.155115
268.000000	-0.187374
267.000000	-0.163172
266.000000	-0.210523
265.000000	-0.161828
264.000000	-0.337451
263.000000	-0.102581
262.000000	-0.216464
261.000000	-0.137907
260.000000	-0.259518
259.000000	-0.153188
258.000000	-0.311574
257.000000	-0.221801
256.000000	-0.214313
255.000000	-0.249444
254.000000	-0.155751
253.000000	-0.202301
252.000000	-0.256150
251.000000	-0.253734
250.000000	-0.189570
249.000000	-0.258793
248.000000	-0.207153
247.000000	-0.148218
246.000000	-0.274325
245.000000	-0.241439
244.000000	-0.170146
243.000000	-0.215311
242.000000	-0.384883
241.000000	-0.158307
240.000000	-0.483713
239.000000	-0.286957
238.000000	-0.225118
237.000000	-0.259203
236.000000	-0.144398
235.000000	-0.664571
234.000000	-0.280650
233.000000	-0.110564
232.000000	-0.365765
231.000000	-0.275556
230.000000	-0.354293
229.000000	-0.369312
228.000000	-1.222631
227.000000	-0.790401
226.000000	-0.131657
225.000000	-0.990589
224.000000	-1.145996
223.000000	-0.277783
222.000000	-0.061589
221.000000	-0.131393
220.000000	-0.289788
219.000000	-0.311298
218.000000	-0.677767
217.000000	-0.627071
216.000000	-0.142166
215.000000	-0.175193
214.000000	-0.246600
213.000000	-1.243056
212.000000	-0.543456
211.000000	-1.224815
210.000000	-0.633423
209.000000	-0.451368
208.000000	-0.430949
207.000000	-0.072095
206.000000	-0.264019
205.000000	-0.329690
204.000000	-1.280635
203.000000	-0.310708
202.000000	-0.159858
201.000000	0.270279
200.000000	-0.580636
