PE UV       SUBTECH     SPECTRUM    ASCII       PEDS        4.00        
   -1
DO-DS.Sample.Raw.asc
25/08/27
16:07:11.00
25/08/27
16:07:11.00
Analyst
rosa
200.000000
1
Lambda 35
505S09021304
PerkinElmer UV WinLab 6.0.2.0723 / Lambda35 1.27

480
2
1
0
0
Both on
1
1
1
None
0
0
0
0
 
 
0
0
0
0
0
 
 
 
0
 
0
326
0
 
0
 
 
 
0
0
0
 
0
 
 
 
0
 
 
0
0
0
0
0
 
 
 
 
0
0
#HDR
-1
-1
#GR
nm
A
1.0
0.0
800.000000
-1.000000
601
8
10.000000
-1.424649
#DATA
800.000000	-0.118882
799.000000	-0.118761
798.000000	-0.118643
797.000000	-0.118714
796.000000	-0.118622
795.000000	-0.119115
794.000000	-0.121160
793.000000	-0.120978
792.000000	-0.120926
791.000000	-0.120825
790.000000	-0.120715
789.000000	-0.120413
788.000000	-0.120076
787.000000	-0.120151
786.000000	-0.120064
785.000000	-0.120237
784.000000	-0.120507
783.000000	-0.120632
782.000000	-0.120939
781.000000	-0.121287
780.000000	-0.121866
779.000000	-0.122337
778.000000	-0.122519
777.000000	-0.122361
776.000000	-0.121962
775.000000	-0.121413
774.000000	-0.121169
773.000000	-0.120498
772.000000	-0.119858
771.000000	-0.119863
770.000000	-0.119712
769.000000	-0.119796
768.000000	-0.119846
767.000000	-0.119977
766.000000	-0.120073
765.000000	-0.119941
764.000000	-0.119846
763.000000	-0.119638
762.000000	-0.119610
761.000000	-0.119615
760.000000	-0.119540
759.000000	-0.119645
758.000000	-0.119275
757.000000	-0.119204
756.000000	-0.119222
755.000000	-0.119280
754.000000	-0.119075
753.000000	-0.119065
752.000000	-0.118973
751.000000	-0.118756
750.000000	-0.118795
749.000000	-0.118653
748.000000	-0.118613
747.000000	-0.118544
746.000000	-0.118373
745.000000	-0.118468
744.000000	-0.118261
743.000000	-0.118308
742.000000	-0.118172
741.000000	-0.118237
740.000000	-0.118121
739.000000	-0.117995
738.000000	-0.118053
737.000000	-0.117935
736.000000	-0.117862
735.000000	-0.117692
734.000000	-0.117678
733.000000	-0.117565
732.000000	-0.117552
731.000000	-0.117496
730.000000	-0.117539
729.000000	-0.117432
728.000000	-0.117286
727.000000	-0.117237
726.000000	-0.117198
725.000000	-0.117017
724.000000	-0.116992
723.000000	-0.116995
722.000000	-0.116918
721.000000	-0.116806
720.000000	-0.116732
719.000000	-0.116601
718.000000	-0.116482
717.000000	-0.116518
716.000000	-0.116344
715.000000	-0.116303
714.000000	-0.116257
713.000000	-0.116127
712.000000	-0.116117
711.000000	-0.116006
710.000000	-0.115845
709.000000	-0.115877
708.000000	-0.115727
707.000000	-0.115589
706.000000	-0.115604
705.000000	-0.115442
704.000000	-0.115390
703.000000	-0.115281
702.000000	-0.115260
701.000000	-0.115170
700.000000	-0.115073
699.000000	-0.114928
698.000000	-0.114946
697.000000	-0.114758
696.000000	-0.114797
695.000000	-0.114575
694.000000	-0.114523
693.000000	-0.114559
692.000000	-0.114348
691.000000	-0.114210
690.000000	-0.114164
689.000000	-0.114179
688.000000	-0.114068
687.000000	-0.113926
686.000000	-0.113854
685.000000	-0.113767
684.000000	-0.112947
683.000000	-0.111719
682.000000	-0.111709
681.000000	-0.111596
680.000000	-0.111531
679.000000	-0.111403
678.000000	-0.111350
677.000000	-0.111308
676.000000	-0.111225
675.000000	-0.111089
674.000000	-0.111042
673.000000	-0.110976
672.000000	-0.110705
671.000000	-0.110573
670.000000	-0.110630
669.000000	-0.110526
668.000000	-0.110491
667.000000	-0.110313
666.000000	-0.110388
665.000000	-0.110249
664.000000	-0.110134
663.000000	-0.110046
662.000000	-0.110020
661.000000	-0.109922
660.000000	-0.109815
659.000000	-0.109732
658.000000	-0.109589
657.000000	-0.109459
656.000000	-0.109413
655.000000	-0.109236
654.000000	-0.109065
653.000000	-0.108909
652.000000	-0.108847
651.000000	-0.108766
650.000000	-0.108464
649.000000	-0.108369
648.000000	-0.108050
647.000000	-0.107836
646.000000	-0.107522
645.000000	-0.107171
644.000000	-0.106690
643.000000	-0.106344
642.000000	-0.105712
641.000000	-0.105368
640.000000	-0.104618
639.000000	-0.103813
638.000000	-0.103218
637.000000	-0.102370
636.000000	-0.101427
635.000000	-0.100346
634.000000	-0.099270
633.000000	-0.097978
632.000000	-0.096713
631.000000	-0.095374
630.000000	-0.093807
629.000000	-0.092573
628.000000	-0.090795
627.000000	-0.089437
626.000000	-0.087646
625.000000	-0.085959
624.000000	-0.083675
623.000000	-0.081340
622.000000	-0.078613
621.000000	-0.075664
620.000000	-0.071867
619.000000	-0.067632
618.000000	-0.062610
617.000000	-0.056757
616.000000	-0.049784
615.000000	-0.041671
614.000000	-0.032221
613.000000	-0.021403
612.000000	-0.008986
611.000000	0.005423
610.000000	0.021949
609.000000	0.040719
608.000000	0.061773
607.000000	0.085108
606.000000	0.111165
605.000000	0.139598
604.000000	0.171111
603.000000	0.204959
602.000000	0.242017
601.000000	0.281253
600.000000	0.323083
599.000000	0.366603
598.000000	0.411840
597.000000	0.457988
596.000000	0.505007
595.000000	0.552463
594.000000	0.599197
593.000000	0.645070
592.000000	0.689581
591.000000	0.731243
590.000000	0.770237
589.000000	0.805232
588.000000	0.836117
587.000000	0.862125
586.000000	0.882950
585.000000	0.898773
584.000000	0.908596
583.000000	0.913521
582.000000	0.913004
581.000000	0.907536
580.000000	0.896138
579.000000	0.880843
578.000000	0.860915
577.000000	0.837460
576.000000	0.810869
575.000000	0.781921
574.000000	0.750588
573.000000	0.717552
572.000000	0.683893
571.000000	0.649654
570.000000	0.615285
569.000000	0.581609
568.000000	0.549212
567.000000	0.518048
566.000000	0.488811
565.000000	0.461157
564.000000	0.435263
563.000000	0.411598
562.000000	0.390003
561.000000	0.370443
560.000000	0.353135
559.000000	0.336836
558.000000	0.322371
557.000000	0.310980
556.000000	0.301049
555.000000	0.292281
554.000000	0.284826
553.000000	0.278207
552.000000	0.272397
551.000000	0.267040
550.000000	0.262099
549.000000	0.257110
548.000000	0.252210
547.000000	0.247159
546.000000	0.241764
545.000000	0.236018
544.000000	0.229542
543.000000	0.222880
542.000000	0.215697
541.000000	0.207946
540.000000	0.199601
539.000000	0.190865
538.000000	0.181921
537.000000	0.172538
536.000000	0.162569
535.000000	0.152519
534.000000	0.142302
533.000000	0.131973
532.000000	0.121733
531.000000	0.111664
530.000000	0.101631
529.000000	0.091916
528.000000	0.082477
527.000000	0.073434
526.000000	0.064858
525.000000	0.056574
524.000000	0.048668
523.000000	0.041063
522.000000	0.034028
521.000000	0.027676
520.000000	0.021299
519.000000	0.015915
518.000000	0.010622
517.000000	0.005807
516.000000	0.001282
515.000000	-0.003202
514.000000	-0.007159
513.000000	-0.010751
512.000000	-0.014367
511.000000	-0.017606
510.000000	-0.020703
509.000000	-0.023685
508.000000	-0.026482
507.000000	-0.029034
506.000000	-0.031708
505.000000	-0.034162
504.000000	-0.036521
503.000000	-0.038713
502.000000	-0.040668
501.000000	-0.042721
500.000000	-0.044528
499.000000	-0.046364
498.000000	-0.047863
497.000000	-0.049450
496.000000	-0.050662
495.000000	-0.052139
494.000000	-0.053362
493.000000	-0.054440
492.000000	-0.055692
491.000000	-0.056631
490.000000	-0.057905
489.000000	-0.058969
488.000000	-0.060062
487.000000	-0.061331
486.000000	-0.062660
485.000000	-0.063909
484.000000	-0.065233
483.000000	-0.066491
482.000000	-0.067716
481.000000	-0.069260
480.000000	-0.070317
479.000000	-0.071676
478.000000	-0.072804
477.000000	-0.073857
476.000000	-0.074915
475.000000	-0.075845
474.000000	-0.076801
473.000000	-0.077580
472.000000	-0.078182
471.000000	-0.078978
470.000000	-0.079565
469.000000	-0.080045
468.000000	-0.080510
467.000000	-0.080714
466.000000	-0.081124
465.000000	-0.081421
464.000000	-0.081983
463.000000	-0.082362
462.000000	-0.082406
461.000000	-0.082931
460.000000	-0.083212
459.000000	-0.083638
458.000000	-0.084074
457.000000	-0.084673
456.000000	-0.084917
455.000000	-0.085400
454.000000	-0.085682
453.000000	-0.086120
452.000000	-0.086635
451.000000	-0.087112
450.000000	-0.087354
449.000000	-0.087763
448.000000	-0.088010
447.000000	-0.088276
446.000000	-0.088575
445.000000	-0.088692
444.000000	-0.088861
443.000000	-0.088996
442.000000	-0.088834
441.000000	-0.089105
440.000000	-0.089524
439.000000	-0.089276
438.000000	-0.089379
437.000000	-0.089420
436.000000	-0.089154
435.000000	-0.089433
434.000000	-0.089379
433.000000	-0.089276
432.000000	-0.089045
431.000000	-0.088997
430.000000	-0.089044
429.000000	-0.088959
428.000000	-0.088749
427.000000	-0.089028
426.000000	-0.088983
425.000000	-0.089020
424.000000	-0.088846
423.000000	-0.088932
422.000000	-0.087865
421.000000	-0.087485
420.000000	-0.087582
419.000000	-0.087606
418.000000	-0.087681
417.000000	-0.087598
416.000000	-0.087644
415.000000	-0.087525
414.000000	-0.087577
413.000000	-0.087696
412.000000	-0.087443
411.000000	-0.087573
410.000000	-0.087622
409.000000	-0.087412
408.000000	-0.087379
407.000000	-0.086809
406.000000	-0.087792
405.000000	-0.087387
404.000000	-0.087199
403.000000	-0.087267
402.000000	-0.087314
401.000000	-0.087230
400.000000	-0.087151
399.000000	-0.086963
398.000000	-0.086966
397.000000	-0.087021
396.000000	-0.086847
395.000000	-0.086660
394.000000	-0.086689
393.000000	-0.086663
392.000000	-0.086358
391.000000	-0.086340
390.000000	-0.086232
389.000000	-0.086308
388.000000	-0.086216
387.000000	-0.085703
386.000000	-0.085709
385.000000	-0.085601
384.000000	-0.084231
383.000000	-0.084304
382.000000	-0.083690
381.000000	-0.083542
380.000000	-0.084094
379.000000	-0.083407
378.000000	-0.083307
377.000000	-0.083208
376.000000	-0.082648
375.000000	-0.082860
374.000000	-0.083079
373.000000	-0.082991
372.000000	-0.083789
371.000000	-0.085514
370.000000	-0.088041
369.000000	-0.089930
368.000000	-0.092553
367.000000	-0.095086
366.000000	-0.097703
365.000000	-0.099296
364.000000	-0.101579
363.000000	-0.102480
362.000000	-0.103668
361.000000	-0.105321
360.000000	-0.105485
359.000000	-0.105810
358.000000	-0.106033
357.000000	-0.106354
356.000000	-0.106149
355.000000	-0.105846
354.000000	-0.105867
353.000000	-0.105602
352.000000	-0.105032
351.000000	-0.104046
350.000000	-0.104070
349.000000	-0.102682
348.000000	-0.101978
347.000000	-0.101319
346.000000	-0.100292
345.000000	-0.099097
344.000000	-0.097574
343.000000	-0.095887
342.000000	-0.094527
341.000000	-0.093142
340.000000	-0.091506
339.000000	-0.089685
338.000000	-0.088576
337.000000	-0.086897
336.000000	-0.084792
335.000000	-0.083387
334.000000	-0.082240
333.000000	-0.080708
332.000000	-0.080101
331.000000	-0.077971
330.000000	-0.076754
329.000000	-0.076524
328.000000	-0.077309
327.000000	-0.084452
326.000000	-0.082145
325.000000	-0.079698
324.000000	-0.077802
323.000000	-0.075180
322.000000	-0.073071
321.000000	-0.070600
320.000000	-0.068341
319.000000	-0.065715
318.000000	-0.062746
317.000000	-0.059750
316.000000	-0.056064
315.000000	-0.053007
314.000000	-0.048902
313.000000	-0.044706
312.000000	-0.041416
311.000000	-0.037717
310.000000	-0.034488
309.000000	-0.032485
308.000000	-0.030295
307.000000	-0.028527
306.000000	-0.026362
305.000000	-0.024105
304.000000	-0.021815
303.000000	-0.018498
302.000000	-0.015892
301.000000	-0.012091
300.000000	-0.008065
299.000000	-0.004167
298.000000	0.000190
297.000000	0.003965
296.000000	0.008143
295.000000	0.008380
294.000000	0.011157
293.000000	0.013263
292.000000	0.023399
291.000000	0.035835
290.000000	0.049781
289.000000	0.060003
288.000000	0.064226
287.000000	0.063781
286.000000	0.060060
285.000000	0.034786
284.000000	-0.001282
283.000000	-0.012723
282.000000	-0.107243
281.000000	-0.049111
280.000000	-0.090329
279.000000	-0.104586
278.000000	0.001875
277.000000	-0.071080
276.000000	-0.140644
275.000000	-0.087650
274.000000	-0.028441
273.000000	-0.111340
272.000000	-0.080425
271.000000	-0.021744
270.000000	-0.107304
269.000000	-0.080590
268.000000	-0.161101
267.000000	0.010166
266.000000	-0.080834
265.000000	-0.126314
264.000000	-0.260678
263.000000	-0.116251
262.000000	-0.249075
261.000000	-0.079800
260.000000	-0.089997
259.000000	-0.175840
258.000000	-0.199397
257.000000	-0.043689
256.000000	-0.226725
255.000000	-0.105133
254.000000	-0.053741
253.000000	-0.259493
252.000000	-0.047805
251.000000	-0.077845
250.000000	-0.095423
249.000000	-0.111777
248.000000	-0.203008
247.000000	-0.168403
246.000000	-0.292858
245.000000	-0.228190
244.000000	-0.234776
243.000000	-0.155338
242.000000	-0.444262
241.000000	-0.118425
240.000000	-0.249231
239.000000	-0.100123
238.000000	-0.409423
237.000000	-0.223014
236.000000	-0.192751
235.000000	-0.327660
234.000000	-0.312529
233.000000	-0.023270
232.000000	-0.182041
231.000000	0.058052
230.000000	-0.267310
229.000000	0.031916
228.000000	-0.014834
227.000000	0.029059
226.000000	-0.049022
225.000000	0.104398
224.000000	-0.340335
223.000000	-0.376555
222.000000	-0.271022
221.000000	10.000000
220.000000	-1.198205
219.000000	-1.200515
218.000000	-0.800931
217.000000	-0.121612
216.000000	-0.607884
215.000000	-0.109533
214.000000	0.138114
213.000000	-0.373033
212.000000	-0.461341
211.000000	-1.121960
210.000000	-1.424649
209.000000	1.196978
208.000000	-0.546892
207.000000	0.041889
206.000000	-0.364281
205.000000	-0.619413
204.000000	-0.409157
203.000000	-0.442870
202.000000	0.177523
201.000000	10.000000
200.000000	-0.240142
