PE UV       SUBTECH     SPECTRUM    ASCII       PEDS        4.00        
   -1
DO-PC.Sample.Raw.asc
25/08/27
16:14:53.00
25/08/27
16:14:53.00
Analyst
celeste
200.000000
1
Lambda 35
505S09021304
PerkinElmer UV WinLab 6.0.2.0723 / Lambda35 1.27

480
2
1
0
0
Both on
1
1
1
None
0
0
0
0
 
 
0
0
0
0
0
 
 
 
0
 
0
326
0
 
0
 
 
 
0
0
0
 
0
 
 
 
0
 
 
0
0
0
0
0
 
 
 
 
0
0
#HDR
-1
-1
#GR
nm
A
1.0
0.0
800.000000
-1.000000
601
8
10.000000
-1.445145
#DATA
800.000000	-0.123821
799.000000	-0.123890
798.000000	-0.123639
797.000000	-0.123625
796.000000	-0.123555
795.000000	-0.124210
794.000000	-0.126474
793.000000	-0.126319
792.000000	-0.126203
791.000000	-0.126027
790.000000	-0.125816
789.000000	-0.125462
788.000000	-0.125027
787.000000	-0.125113
786.000000	-0.125086
785.000000	-0.125142
784.000000	-0.125102
783.000000	-0.125334
782.000000	-0.125604
781.000000	-0.125974
780.000000	-0.126400
779.000000	-0.126808
778.000000	-0.126811
777.000000	-0.126493
776.000000	-0.125885
775.000000	-0.125221
774.000000	-0.124843
773.000000	-0.124098
772.000000	-0.123371
771.000000	-0.123129
770.000000	-0.122879
769.000000	-0.122725
768.000000	-0.122470
767.000000	-0.122390
766.000000	-0.122194
765.000000	-0.121903
764.000000	-0.121417
763.000000	-0.120824
762.000000	-0.120535
761.000000	-0.119842
760.000000	-0.119286
759.000000	-0.118735
758.000000	-0.117928
757.000000	-0.117126
756.000000	-0.116234
755.000000	-0.115364
754.000000	-0.114154
753.000000	-0.112934
752.000000	-0.111575
751.000000	-0.110227
750.000000	-0.108676
749.000000	-0.107011
748.000000	-0.105265
747.000000	-0.103233
746.000000	-0.101005
745.000000	-0.098496
744.000000	-0.095916
743.000000	-0.093018
742.000000	-0.089901
741.000000	-0.086576
740.000000	-0.082978
739.000000	-0.079024
738.000000	-0.074940
737.000000	-0.070463
736.000000	-0.065474
735.000000	-0.060046
734.000000	-0.054262
733.000000	-0.047719
732.000000	-0.040773
731.000000	-0.033139
730.000000	-0.024843
729.000000	-0.015820
728.000000	-0.005704
727.000000	0.004887
726.000000	0.016751
725.000000	0.029666
724.000000	0.043912
723.000000	0.059365
722.000000	0.076199
721.000000	0.094478
720.000000	0.114301
719.000000	0.135641
718.000000	0.158641
717.000000	0.183224
716.000000	0.209759
715.000000	0.238334
714.000000	0.268998
713.000000	0.300920
712.000000	0.334601
711.000000	0.369920
710.000000	0.406854
709.000000	0.444782
708.000000	0.484252
707.000000	0.524795
706.000000	0.566009
705.000000	0.607916
704.000000	0.650063
703.000000	0.692354
702.000000	0.734325
701.000000	0.775244
700.000000	0.814924
699.000000	0.853045
698.000000	0.889339
697.000000	0.924080
696.000000	0.956661
695.000000	0.986232
694.000000	1.012903
693.000000	1.036521
692.000000	1.056810
691.000000	1.073578
690.000000	1.086689
689.000000	1.096363
688.000000	1.102026
687.000000	1.104150
686.000000	1.102708
685.000000	1.097745
684.000000	1.089385
683.000000	1.078150
682.000000	1.063162
681.000000	1.044952
680.000000	1.024878
679.000000	1.001418
678.000000	0.976271
677.000000	0.949225
676.000000	0.920456
675.000000	0.890778
674.000000	0.859526
673.000000	0.828132
672.000000	0.796327
671.000000	0.764573
670.000000	0.733057
669.000000	0.701734
668.000000	0.670811
667.000000	0.640853
666.000000	0.611068
665.000000	0.583296
664.000000	0.556467
663.000000	0.530601
662.000000	0.506421
661.000000	0.483314
660.000000	0.461917
659.000000	0.441441
658.000000	0.422405
657.000000	0.404854
656.000000	0.388693
655.000000	0.373684
654.000000	0.360226
653.000000	0.347785
652.000000	0.336549
651.000000	0.326320
650.000000	0.317348
649.000000	0.308925
648.000000	0.301508
647.000000	0.294838
646.000000	0.288689
645.000000	0.283313
644.000000	0.278361
643.000000	0.273697
642.000000	0.269911
641.000000	0.265728
640.000000	0.262155
639.000000	0.258554
638.000000	0.254933
637.000000	0.251346
636.000000	0.247780
635.000000	0.244062
634.000000	0.240298
633.000000	0.236489
632.000000	0.232545
631.000000	0.228291
630.000000	0.223801
629.000000	0.218976
628.000000	0.214189
627.000000	0.208864
626.000000	0.203666
625.000000	0.198087
624.000000	0.192435
623.000000	0.186598
622.000000	0.180800
621.000000	0.174471
620.000000	0.168284
619.000000	0.161930
618.000000	0.155545
617.000000	0.149079
616.000000	0.142584
615.000000	0.136280
614.000000	0.130041
613.000000	0.123806
612.000000	0.117552
611.000000	0.111327
610.000000	0.105221
609.000000	0.099372
608.000000	0.093612
607.000000	0.087797
606.000000	0.082374
605.000000	0.077047
604.000000	0.072054
603.000000	0.066963
602.000000	0.062191
601.000000	0.057472
600.000000	0.053106
599.000000	0.048946
598.000000	0.044842
597.000000	0.041151
596.000000	0.037491
595.000000	0.033883
594.000000	0.030813
593.000000	0.027717
592.000000	0.024788
591.000000	0.021827
590.000000	0.019260
589.000000	0.016706
588.000000	0.014253
587.000000	0.012102
586.000000	0.009711
585.000000	0.007609
584.000000	0.005525
583.000000	0.003301
582.000000	0.001255
581.000000	-0.000690
580.000000	-0.002760
579.000000	-0.004971
578.000000	-0.006953
577.000000	-0.008865
576.000000	-0.010930
575.000000	-0.012936
574.000000	-0.014853
573.000000	-0.016972
572.000000	-0.018995
571.000000	-0.021094
570.000000	-0.023158
569.000000	-0.024984
568.000000	-0.027273
567.000000	-0.029015
566.000000	-0.030939
565.000000	-0.033018
564.000000	-0.034880
563.000000	-0.036767
562.000000	-0.038747
561.000000	-0.040701
560.000000	-0.042465
559.000000	-0.045377
558.000000	-0.048403
557.000000	-0.050127
556.000000	-0.051768
555.000000	-0.053702
554.000000	-0.055231
553.000000	-0.056998
552.000000	-0.058550
551.000000	-0.060057
550.000000	-0.061571
549.000000	-0.063210
548.000000	-0.064429
547.000000	-0.065884
546.000000	-0.067304
545.000000	-0.068542
544.000000	-0.069851
543.000000	-0.071150
542.000000	-0.072265
541.000000	-0.073330
540.000000	-0.074455
539.000000	-0.075407
538.000000	-0.076345
537.000000	-0.077183
536.000000	-0.078185
535.000000	-0.079093
534.000000	-0.079877
533.000000	-0.080734
532.000000	-0.081517
531.000000	-0.082099
530.000000	-0.082841
529.000000	-0.083385
528.000000	-0.084226
527.000000	-0.084780
526.000000	-0.085602
525.000000	-0.086148
524.000000	-0.086676
523.000000	-0.087354
522.000000	-0.087831
521.000000	-0.088543
520.000000	-0.089086
519.000000	-0.089643
518.000000	-0.090091
517.000000	-0.090612
516.000000	-0.091103
515.000000	-0.091716
514.000000	-0.092010
513.000000	-0.092381
512.000000	-0.092980
511.000000	-0.093428
510.000000	-0.093832
509.000000	-0.094198
508.000000	-0.094723
507.000000	-0.094928
506.000000	-0.095385
505.000000	-0.095688
504.000000	-0.096041
503.000000	-0.096295
502.000000	-0.096559
501.000000	-0.097004
500.000000	-0.097103
499.000000	-0.097495
498.000000	-0.097736
497.000000	-0.097908
496.000000	-0.098078
495.000000	-0.098390
494.000000	-0.098653
493.000000	-0.098623
492.000000	-0.098826
491.000000	-0.098954
490.000000	-0.099186
489.000000	-0.099266
488.000000	-0.099340
487.000000	-0.099428
486.000000	-0.099488
485.000000	-0.099643
484.000000	-0.099760
483.000000	-0.099737
482.000000	-0.099920
481.000000	-0.099994
480.000000	-0.100040
479.000000	-0.100225
478.000000	-0.100203
477.000000	-0.100354
476.000000	-0.100636
475.000000	-0.100562
474.000000	-0.100317
473.000000	-0.100656
472.000000	-0.100864
471.000000	-0.101000
470.000000	-0.100989
469.000000	-0.100782
468.000000	-0.100942
467.000000	-0.100901
466.000000	-0.100875
465.000000	-0.100886
464.000000	-0.101029
463.000000	-0.100946
462.000000	-0.100892
461.000000	-0.100865
460.000000	-0.100695
459.000000	-0.101311
458.000000	-0.101140
457.000000	-0.101028
456.000000	-0.100886
455.000000	-0.101058
454.000000	-0.100900
453.000000	-0.100967
452.000000	-0.101045
451.000000	-0.100808
450.000000	-0.100853
449.000000	-0.100669
448.000000	-0.100851
447.000000	-0.100625
446.000000	-0.100530
445.000000	-0.100443
444.000000	-0.100395
443.000000	-0.100356
442.000000	-0.100062
441.000000	-0.099916
440.000000	-0.099896
439.000000	-0.099669
438.000000	-0.099359
437.000000	-0.099499
436.000000	-0.099124
435.000000	-0.098978
434.000000	-0.098783
433.000000	-0.098440
432.000000	-0.098261
431.000000	-0.098060
430.000000	-0.097686
429.000000	-0.097632
428.000000	-0.097331
427.000000	-0.097346
426.000000	-0.097194
425.000000	-0.097000
424.000000	-0.096569
423.000000	-0.096621
422.000000	-0.095400
421.000000	-0.094725
420.000000	-0.094757
419.000000	-0.094495
418.000000	-0.094407
417.000000	-0.094112
416.000000	-0.094081
415.000000	-0.093676
414.000000	-0.093434
413.000000	-0.093447
412.000000	-0.093135
411.000000	-0.092964
410.000000	-0.092777
409.000000	-0.092413
408.000000	-0.092189
407.000000	-0.092051
406.000000	-0.091954
405.000000	-0.091771
404.000000	-0.091497
403.000000	-0.091290
402.000000	-0.091078
401.000000	-0.090460
400.000000	-0.090024
399.000000	-0.089496
398.000000	-0.089055
397.000000	-0.088245
396.000000	-0.087480
395.000000	-0.086230
394.000000	-0.085239
393.000000	-0.084152
392.000000	-0.082832
391.000000	-0.081386
390.000000	-0.079962
389.000000	-0.078737
388.000000	-0.077071
387.000000	-0.075421
386.000000	-0.074152
385.000000	-0.072894
384.000000	-0.070714
383.000000	-0.069794
382.000000	-0.068923
381.000000	-0.067913
380.000000	-0.068920
379.000000	-0.069039
378.000000	-0.069973
377.000000	-0.070154
376.000000	-0.070814
375.000000	-0.071922
374.000000	-0.072871
373.000000	-0.073424
372.000000	-0.074838
371.000000	-0.077671
370.000000	-0.080578
369.000000	-0.083420
368.000000	-0.086559
367.000000	-0.089681
366.000000	-0.093066
365.000000	-0.095787
364.000000	-0.098221
363.000000	-0.100178
362.000000	-0.102040
361.000000	-0.104254
360.000000	-0.105635
359.000000	-0.106628
358.000000	-0.108150
357.000000	-0.109141
356.000000	-0.109736
355.000000	-0.110562
354.000000	-0.111284
353.000000	-0.111212
352.000000	-0.110763
351.000000	-0.110180
350.000000	-0.108653
349.000000	-0.106832
348.000000	-0.103726
347.000000	-0.100448
346.000000	-0.096229
345.000000	-0.090670
344.000000	-0.084371
343.000000	-0.075820
342.000000	-0.066410
341.000000	-0.055407
340.000000	-0.044671
339.000000	-0.036746
338.000000	-0.032864
337.000000	-0.032909
336.000000	-0.037460
335.000000	-0.044374
334.000000	-0.051930
333.000000	-0.059446
332.000000	-0.065665
331.000000	-0.068481
330.000000	-0.071858
329.000000	-0.074045
328.000000	-0.077717
327.000000	-0.087602
326.000000	-0.088077
325.000000	-0.089693
324.000000	-0.090778
323.000000	-0.092546
322.000000	-0.094719
321.000000	-0.096783
320.000000	-0.098632
319.000000	-0.100368
318.000000	-0.101408
317.000000	-0.102956
316.000000	-0.103669
315.000000	-0.104438
314.000000	-0.105232
313.000000	-0.105659
312.000000	-0.106008
311.000000	-0.106226
310.000000	-0.106184
309.000000	-0.106281
308.000000	-0.106241
307.000000	-0.106621
306.000000	-0.106217
305.000000	-0.105235
304.000000	-0.103978
303.000000	-0.102709
302.000000	-0.101577
301.000000	-0.099795
300.000000	-0.097333
299.000000	-0.095685
298.000000	-0.093554
297.000000	-0.091861
296.000000	-0.090967
295.000000	-0.093896
294.000000	-0.095823
293.000000	-0.098057
292.000000	-0.091473
291.000000	-0.084456
290.000000	-0.077568
289.000000	-0.073094
288.000000	-0.075567
287.000000	-0.069533
286.000000	-0.074398
285.000000	-0.097338
284.000000	-0.124664
283.000000	-0.111345
282.000000	-0.113577
281.000000	-0.135867
280.000000	-0.095276
279.000000	-0.096097
278.000000	-0.093234
277.000000	-0.113942
276.000000	-0.154264
275.000000	-0.205140
274.000000	-0.141717
273.000000	-0.197547
272.000000	-0.172250
271.000000	-0.102193
270.000000	-0.153023
269.000000	-0.239292
268.000000	-0.246453
267.000000	-0.196225
266.000000	-0.122223
265.000000	-0.121155
264.000000	-0.307846
263.000000	-0.126762
262.000000	-0.130008
261.000000	-0.107570
260.000000	-0.202622
259.000000	-0.159105
258.000000	-0.217081
257.000000	-0.198828
256.000000	-0.189913
255.000000	-0.169769
254.000000	-0.016629
253.000000	-0.213450
252.000000	-0.121802
251.000000	-0.133028
250.000000	-0.207909
249.000000	-0.144486
248.000000	-0.227626
247.000000	-0.173502
246.000000	-0.216387
245.000000	-0.370152
244.000000	-0.159166
243.000000	-0.052007
242.000000	-0.231775
241.000000	-0.197022
240.000000	-0.271475
239.000000	-0.235128
238.000000	-0.183091
237.000000	-0.412093
236.000000	-0.192938
235.000000	-0.284530
234.000000	-0.269443
233.000000	10.000000
232.000000	-0.520494
231.000000	-0.338595
230.000000	-0.349457
229.000000	-0.136057
228.000000	-0.165345
227.000000	-0.094074
226.000000	-0.402987
225.000000	0.097185
224.000000	-0.379468
223.000000	-0.466530
222.000000	-0.121818
221.000000	0.385823
220.000000	0.097188
219.000000	-0.343418
218.000000	-0.056815
217.000000	-0.530767
216.000000	-0.470445
215.000000	-0.325857
214.000000	-0.188405
213.000000	-0.994455
212.000000	-0.565807
211.000000	-0.179330
210.000000	-1.219955
209.000000	-1.445145
208.000000	-0.855955
207.000000	-0.966972
206.000000	-0.118134
205.000000	-0.856699
204.000000	-0.705169
203.000000	-0.579093
202.000000	0.119032
201.000000	-0.396371
200.000000	-0.089369
